t,inertial_forces,gravity,Stokes_drag,history_force,velocity
0.0,0.0,6.3520142226383e-310,0.0,0.0032365476708431,1.0
0.0050688550046883,0.0878329286737854,0.0,-0.00772918512513,-0.0325158631992779,0.9991980409831369
0.0101377100093767,0.16244457915468502,0.0,-0.0238879478096443,-0.0676780317561537,0.9968554131776705
0.0152065650140651,0.23232634135351898,0.0,-0.0438383908195957,-0.101717270272005,0.9930323353734365
0.0202754200187534,0.2973060656589741,0.0,-0.0685561312707369,-0.134635217414679,0.9877204958453354
0.0253442750234418,0.36061694659395427,0.0,-0.0939820885080126,-0.164820309443804,0.9809713159986067
0.0304131300281302,0.420984406289294,0.0,-0.12256938951826,-0.193018903713273,0.9727870781373952
0.0354819850328185,0.4801355995476064,0.0,-0.150837208800774,-0.219180218409201,0.9632062571143263
0.0405508400375069,0.5370170413920956,0.0,-0.181440402866203,-0.243630991741889,0.9522372634145728
0.0456196950421953,0.5926910040630239,0.0,-0.21136647282549,-0.266516822041241,0.9399145172697173
0.0506885500468836,0.646389269562214,0.0,-0.243007611133604,-0.287872066407738,0.9262534088668479
0.055757405051572,0.6987793435255164,0.0,-0.273843359301491,-0.307912247452835,0.9112875783201009
0.0608262600562603,0.7493148347494228,0.0,-0.305875350432145,-0.326539147594093,0.8950386808024987
0.0658951150609487,0.7984125296594093,0.0,-0.337060877615508,-0.343985457643644,0.8775411737395592
0.0709639700656371,0.8456856679161455,0.0,-0.369002327041876,-0.360105469470783,0.858822166913176
0.0760328250703254,0.8913890045465658,0.0,-0.400083477743625,-0.375118273662054,0.8389178286718223
0.0811016800750138,0.9352476675300192,0.0,-0.431547518819819,-0.388872780216901,0.8178600279669999
0.0861705350797022,0.9774115783940245,0.0,-0.462138358265705,-0.40156035466866,0.7956871296766245
0.0912393900843905,1.0176835903825763,0.0,-0.492797140942051,-0.413044233091231,0.7724351815894354
0.0963082450890789,1.056146425326873,0.0,-0.522560580611421,-0.423484149646804,0.7481449688195426
0.101377100093767,1.0926569978410734,0.0,-0.552126518669424,-0.432765342729381,0.7228562247246716
0.106445955098456,1.127255811919574,0.0,-0.580763401035694,-0.441017426239633,0.6966122028177092
0.111514810103144,1.1598377675807092,0.0,-0.608978988570463,-0.448149051195886,0.6694558881205668
0.116583665107832,1.1904177951163257,0.0,-0.636221530015906,-0.454263686266454,0.6414329299265726
0.121652520112521,1.2189180121974625,0.0,-0.662853774828314,-0.459291798315632,0.6125891686575968
0.126721375117209,1.2453388757699355,0.0,-0.68846145700031,-0.463315465781986,0.5829724921063374
0.131790230121897,1.2696225937130643,0.0,-0.713298886771092,-0.466284166772783,0.5526312219410675
0.136859085126586,1.2917625483164692,0.0,-0.737055824311774,-0.468263234997287,0.5216152669739025
0.141927940131274,1.3117163698465384,0.0,-0.759906953145559,-0.469218095647038,0.4899750676323773
0.146996795135962,1.329475287593555,0.0,-0.78162019892857,-0.469201458034473,0.45776229302029947
0.152065650140651,1.345009326293586,0.0,-0.802312825919638,-0.468191830741412,0.42502914490222243
0.157134505145339,1.3583108235865091,0.0,-0.821811290561574,-0.466232747207952,0.39182876072661565
0.162203360150028,1.369360249052263,0.0,-0.840192265317971,-0.463313324062822,0.35821474742437726
0.167272215154716,1.37815319460419,0.0,-0.857326043348756,-0.459470692027248,0.32424139639922056
0.172341070159404,1.3846793224898322,0.0,-0.873261281512034,-0.454702531957331,0.28996336299074527
0.177409925164093,1.3889388724725193,0.0,-0.887901243332635,-0.449041734441136,0.25543576234688187
0.182478780168781,1.3909298887646944,0.0,-0.901275860561147,-0.442492904429345,0.220713940408652
0.187547635173469,1.3906581416412593,0.0,-0.913313410642319,-0.435086335099962,0.18585349522358377
0.192616490178158,1.3881295174478336,0.0,-0.924031893791254,-0.426832261585257,0.15091010495904317
0.197685345182846,1.3833558488789586,0.0,-0.93337882278312,-0.417759596369469,0.11593950331745406
0.202754200187534,1.3763504827480322,0.0,-0.941365187102257,-0.407883192165167,0.08099734287005433
0.207823055192223,1.3671316013425159,0.0,-0.947953564377557,-0.397231457409391,0.04613914292329855
0.212891910196911,1.3557197147357902,0.0,-0.953151463873853,-0.385823069778938,0.01142017472467438
0.2179607652016,1.3421394673384808,0.0,-0.956933530608035,-0.373686543848784,-0.023104606512279646
0.223029620206288,1.3264182721350388,0.0,-0.95930630011377,-0.36084375659852,-0.0573806626851749
0.228098475210976,1.3085872199175435,0.0,-0.960254333079865,-0.347323732929119,-0.09135394915859664
0.233167330215665,1.288680372884634,0.0,-0.959784947842843,-0.333151046989771,-0.12497100691831978
0.238236185220353,1.266735155002057,0.0,-0.957891071743155,-0.318355480481614,-0.1581790425420635
0.243305040225041,1.2427920119658544,0.0,-0.954582015170753,-0.302963891891284,-0.19092601411424623
0.24837389522973,1.2168945109117448,0.0,-0.949857947232684,-0.287006946283237,-0.2231607117418398
0.253442750234418,1.1890891922490168,0.0,-0.943730980757892,-0.270513436769249,-0.2548328386065523
0.258511605239106,1.1594255136159841,0.0,-0.936207695955333,-0.253514947624737,-0.28589309001494895
0.263580460243795,1.1279557922657284,0.0,-0.927303527433277,-0.236041900479085,-0.3162932301715071
0.268649315248483,1.0947350709748476,0.0,-0.917030836384557,-0.21812676630095,-0.3459861684088326
0.273718170253171,1.0598210941836999,0.0,-0.905408685317971,-0.199801318546088,-0.37492603179591855
0.27878702525786,1.0232741391007747,0.0,-0.892454719890807,-0.181098831025311,-0.40306823760040483
0.283855880262548,0.9851569953993922,0.0,-0.878191779326555,-0.16205217170277,-0.4303695615806093
0.288924735267237,0.9455347844243345,0.0,-0.86264238341994,-0.14269529502201,-0.4567882059833905
0.293993590271925,0.9044749277726676,0.0,-0.845833179675906,-0.123061918628665,-0.48228386322942807
0.299062445276613,0.862046965840706,0.0,-0.827791204673387,-0.103186526954051,-0.5068177789086754
0.304131300281302,0.8183225094002493,0.0,-0.808546857214516,-0.0831034504771857,-0.5303528105067782
0.30920015528599,0.7733750622842064,0.0,-0.788131363304097,-0.062847532188453,-0.5528534849637026
0.314269010290678,0.7272799548216851,0.0,-0.766578748127819,-0.0424534837702115,-0.5742860520746984
0.319337865295367,0.6801141721104851,0.0,-0.743924114128648,-0.0219563205353257,-0.5946185362501275
0.324406720300055,0.631956270570859,0.0,-0.720204934964907,-0.0013909074723503,-0.6138207842379909
0.329475575304743,0.582886211678494,0.0,-0.695459880538489,0.0192077640818091,-0.6318645107782979
0.334544430309432,0.532985263958414,0.0,-0.669729653029497,0.0398049005651213,-0.648723340324753
0.33961328531412,0.48233584145907193,0.0,-0.643056178219812,0.0603657371315531,-0.6643728463337245
0.344682140318809,0.4310213938450351,0.0,-0.615483133025692,0.0808557731352835,-0.6787905867025236
0.349750995323497,0.37912624881191503,0.0,-0.587055380994368,0.101240675767709,-0.6919561364764993
0.354819850328185,0.32673549290594306,0.0,-0.557819292474774,0.121486455019586,-0.7038511167665032
0.359888705332874,0.273934817239307,0.0,-0.527822342093014,0.14155941600089,-0.7144592206998519
0.364957560337562,0.220810391468937,0.0,-0.497113289843482,0.161426292463908,-0.7237662356277842
0.37002641534225,0.16744871242180503,0.0,-0.465741885485702,0.181054231321008,-0.7317600621884752
0.375095270346939,0.11393647341357602,0.0,-0.433758956560049,0.200410897598054,-0.738430729664872
0.380164125351627,0.060360415654575006,0.0,-0.401216183025017,0.219464479843349,-0.7437704080711672
0.385232980356315,0.006807194836626007,0.0,-0.368166123152231,0.238183775126604,-0.7477734165713495
0.390301835361004,-0.04663676457536141,0.0,-0.334662034123051,0.25653820758262,-0.7504362285447223
0.395370690365692,-0.0998854037883801,0.0,-0.300757856627894,0.274497899171852,-0.7517574730253316
0.400439545370381,-0.152853172206718,0.0,-0.266508065477951,0.292033696030188,-0.7517379327467942
0.405508400375069,-0.2054551614052269,0.0,-0.231967626939541,0.309117228742128,-0.7503805386121474
0.410577255379757,-0.257607244026759,0.0,-0.197191869001413,0.325720942824251,-0.7476903607633362
0.415646110384446,-0.309226205945058,0.0,-0.162236420933108,0.341818150937689,-0.7436745961395305
0.420714965389134,-0.360229880983413,0.0,-0.127157096574836,0.357383064962439,-0.738342552661591
0.425783820393822,-0.410537280066504,0.0,-0.092009822582438,0.37239084168962,-0.731705629984352
0.430852675398511,-0.460068721139857,0.0,-0.0568505305829999,0.386817614713621,-0.7237772969309242
0.435921530403199,-0.508745954226183,0.0,-0.0217350785575654,0.400640534557394,-0.7145730655906596
0.440990385407887,-0.556492285886071,0.0,0.0132808506569049,0.413837799136075,-0.7041104621817862
0.446059240412576,-0.60323269919447,0.0,0.0481418317300294,0.426388688883977,-0.6924089946913211
0.451128095417264,-0.648893972068743,0.0,0.0827927934329686,0.438273594905052,-0.6794901173871186
0.456196950421953,-0.6934047912693401,0.0,0.117179102513797,0.449474049423298,-0.6653771922387861
0.461265805426641,-0.7366958639271349,0.0,0.151246656130664,0.45997275098679,-0.650095447341073
0.466334660431329,-0.778700024753229,0.0,0.184941965595395,0.46975359040845,-0.6336719323957534
0.471403515436018,-0.819352340119163,0.0,0.21821224493389,0.478801672567951,-0.6161354713473323
0.476472370440706,-0.8585902077369559,0.0,0.251005493245646,0.487103337917675,-0.5975166122443344
0.481541225445394,-0.896353452680348,0.0,0.283270579394023,0.494646180554112,-0.5778475744252035
0.486610080450083,-0.9325844188697203,0.0,0.314957321994823,0.501419065313937,-0.5571621931135223
0.491678935454771,-0.967228056467328,0.0,0.346016570062743,0.507412141881619,-0.5354958615264003
0.496747790459459,-1.0002320045744255,0.0,0.376400279825126,0.512616857477714,-0.5128854705915228
0.501816645464148,-1.0315466694862419,0.0,0.406061591048343,0.517025966842935,-0.4893693463819865
0.506885500468836,-1.0611252980813854,0.0,0.434954900003011,0.520633540516965,-0.46498718537359945
0.511954355473524,-1.0889240464816539,0.0,0.463035931140305,0.523434970597466,-0.43977998763891496
0.517023210478213,-1.1149020436870707,0.0,0.490261805632134,0.525426974616418,-0.41378998809048123
0.522092065482901,-1.139021450250047,0.0,0.51659110804643,0.526607597022081,-0.3870605858925689
0.52716092048759,-1.161247511783771,0.0,0.541983949962044,0.526976208675529,-0.35963627216015476
0.532229775492278,-1.1815486073284809,0.0,0.566402031293558,0.5265335040461,-0.3315625560690924
0.537298630496966,-1.1998962924361276,0.0,0.589808698544563,0.52528149637249,-0.30288588950141093
0.542367485501655,-1.2162653369779266,0.0,0.612169000448845,0.523223510600349,-0.27365359035348996
0.547436340506343,-1.2306337575840185,0.0,0.633449740482478,0.520364174276162,-0.2439137646353819
0.552505195511032,-1.242982844714966,0.0,0.653619526514898,0.516709406290851,-0.2137152274919275
0.55757405051572,-1.2532971843115648,0.0,0.672648817252878,0.512266403600053,-0.18310742327720853
0.562642905520408,-1.2615646740273219,0.0,0.690509965629181,0.507043625869923,-0.1521403448152003
0.567711760525097,-1.267776534020325,0.0,0.707177258901705,0.501050778144232,-0.12086445198026162
0.572780615529785,-1.271927312318592,0.0,0.722626955546544,0.494298791518527,-0.08933058973181389
0.577849470534473,-1.274014884761851,0.0,0.736837318785152,0.486799801900139,-0.057589905737799214
0.582918325539162,-1.2740404495465951,0.0,0.749788646791052,0.478567126865252,-0.025693767721915048
0.58798718054385,-1.272008516400447,0.0,0.761463299467159,0.469615240683491,0.006306319330634549
0.593056035548538,-1.2679268904275223,0.0,0.771845721819889,0.459959747538864,0.03835879597444094
0.598124890553227,-1.2618066506713794,0.0,0.780922463857895,0.449617353014177,0.07041213097816598
0.603193745557915,-1.2536621234533796,0.0,0.788682197033663,0.438605833881123,0.10241490373864702
0.608262600562603,-1.2435108505514876,0.0,0.795115727183545,0.426944006262721,0.13431588630266486
0.613331455567292,-1.2313735522936387,0.0,0.800216003983839,0.414651692220006,0.16606412486526526
0.61840031057198,-1.2172740856481932,0.0,0.803978126900435,0.401749684831068,0.1976090206150694
0.623469165576668,-1.2012393974011255,0.0,0.806399347653438,0.38825971182197,0.22890040979871532
0.628538020581357,-1.1832994725186523,0.0,0.807479069192472,0.374204397819465,0.2598886428781686
0.633606875586045,-1.163487277800105,0.0,0.807218841210634,0.359607225291118,0.29052466265690424
0.638675730590734,-1.1418387009343827,0.0,0.805622352208314,0.344492494245678,0.32076008125318045
0.643744585595422,-1.1183924850791607,0.0,0.802695418142762,0.328885280762695,0.3505472558008481
0.64881344060011,-1.093190159089589,0.0,0.798445967688937,0.31281139442713,0.37983936276108793
0.653882295604799,-1.0662759635286612,0.0,0.792884024155732,0.296297334742125,0.4085904707308902
0.658951150609487,-1.037696772598311,0.0,0.786021684095803,0.279370246596725,0.43675561163729654
0.664020005614175,-1.0075020121350757,0.0,0.777873092662136,0.262057874864106,0.4642908502095007
0.669088860618864,-0.9757435738205233,0.0,0.768454415761157,0.244388518209721,0.4911533516240048
0.674157715623552,-0.9424757257601732,0.0,0.757783809063805,0.226390982186215,0.5173014472216275
0.67922657062824,-0.9077550195912824,0.0,0.745881383935506,0.208094531694257,0.5426946981986372
0.684295425632929,-0.8716401942818568,0.0,0.732769170354851,0.189528842889803,0.5672939571778908
0.689364280637617,-0.8341920767891617,0.0,0.718471076890713,0.170723954615242,0.5910614275697048
0.694433135642306,-0.7954734797483822,0.0,0.703012847816993,0.151710219435182,0.6139607206361343
0.699501990646994,-0.7555490963657546,0.0,0.686422017442236,0.132518254356066,0.6359569101761565
0.704570845651682,-0.7144853926934609,0.0,0.668727861741315,0.113178891308505,0.657016584753601
0.709639700656371,-0.672350497465649,0.0,0.649961347374166,0.0937231274709824,0.6771078973935872
0.714708555661059,-0.629214089678346,0.0,0.6301550781856,0.0741820755135993,0.6962006126776505
0.719777410665747,-0.585147284095641,0.0,0.609343239278086,0.0545869138397253,0.7142661511720264
0.724846265670436,-0.540222514869249,0.0,0.587561538757075,0.0349688369004078,0.7312776311278895
0.729915120675124,-0.49451341745716404,0.0,0.564847147248588,0.0153590056609496,0.7472099073968161
0.734983975679812,-0.4480947090289691,0.0,0.541238635291628,-0.004211501708097,0.7620396075092317
0.740052830684501,-0.40104206754713195,0.0,0.516775908712195,-0.0237117388410111,0.7757451648681181
0.745121685689189,-0.35343200971235,0.0,0.491500142085819,-0.0431109398141585,0.7883068490147208
0.750190540693877,-0.30534176796241097,0.0,0.465453710399188,-0.062378567339779,0.7997067929277715
0.755259395698566,-0.256849166713488,0.0,0.438680119022467,-0.0814843604457529,0.8099290173221186
0.760328250703254,-0.20803249803274199,0.0,0.41122393210627,-0.10039838157231,0.8189594519173372
0.765397105707943,-0.15897039693029602,0.0,0.383130699518226,-0.119091063018131,0.8267859536516913
0.770465960712631,-0.10974171645846101,0.0,0.354446882436079,-0.137533252670092,0.8333983218210865
0.775534815717319,-0.06042540280462699,0.0,0.325219777714996,-0.15569625895179,0.8387883101276689
0.780603670722008,-0.011100370563696005,0.0,0.295497441148207,-0.173551894927904,0.8429496356270036
0.785672525726696,0.03815462162572861,0.0,0.26532860974062,-0.191072521502948,0.8458779845675974
0.790741380731384,0.0872610948983611,0.0,0.23476262311636,-0.208231089654891,0.8475710151210685
0.795810235736073,0.136140973250991,0.0,0.203849344181102,-0.225001181645545,0.8480283570057404
0.800879090740761,0.18471670572296062,0.0,0.172639079161498,-0.241357051150712,0.8472516080111625
0.805947945745449,0.232911387491246,0.0,0.141182497143208,-0.257273662255736,0.8452443274354734
0.811016800750138,0.280648879703347,0.0,0.109530549230179,-0.272726727263445,0.8420120264520589
0.816085655754826,0.327853927874761,0.0,0.0777343874473798,-0.287692743262922,0.8375621554263888
0.821154510759515,0.37445227867946795,0.0,0.0458452835096009,-0.302149027409761,0.8319040882085074
0.826223365764203,0.420370794963879,0.0,0.0139145475779815,-0.316073750869645,0.8250491034307998
0.831292220768891,0.46553756881837005,0.0,-0.0180065528732124,-0.329445971379861,0.8170103628452315
0.83636107577358,0.509882032541639,0.0,-0.049866873958635,-0.342245664383145,0.8078028867385163
0.841429930778268,0.553335067338101,0.0,-0.0816154759318621,-0.354453752692544,0.7974435264678119
0.846498785782956,0.595829109588527,0.0,-0.113201703262931,-0.366052134648058,0.7859509341639112
0.851567640787645,0.63729825454012,0.0,-0.144575264123166,-0.377023710722693,0.7733455296529999
0.856636495792333,0.677678357264359,0.0,-0.175686309160987,-0.387352408544314,0.7596494646520897
0.861705350797021,0.7169071307335739,0.0,-0.206485509448354,-0.397023206298347,0.7448865842972686
0.86677420580171,0.754924240872328,0.0,-0.236924133483788,-0.406022154476657,0.7290823860680179
0.871843060806398,0.791671398442706,0.0,-0.2669541231355,-0.414336395943541,0.7122639761744747
0.876911915811087,0.827092447626395,0.0,-0.296528168411925,-0.421954184289479,0.6944600234785093
0.881980770815775,0.8611334511716671,0.0,-0.325599780946764,-0.42886490044623,0.6757007110231468
0.887049625820463,0.8937427719762614,0.0,-0.35412336608917,-0.435059067539507,0.6560176852484639
0.892118480825152,0.9248711509833683,0.0,-0.382054293489045,-0.440528363956646,0.6354440029756124
0.89718733582984,0.9544717812712293,0.0,-0.409348966072625,-0.445265634608593,0.6140140762441187
0.902256190834528,0.9825003782240582,0.0,-0.435964887302601,-0.449264900370938,0.5917636150907633
0.907325045839217,1.008915245673858,0.0,-0.461860726621458,-0.452521365687423,0.5687295683617404
0.912393900843905,1.0336773379125876,0.0,-0.48699638297767,-0.455031424324349,0.5449500626527456
0.917462755848593,1.0567503174749533,0.0,-0.51133304633811,-0.456792663264936,0.5204643394745196
0.922531610853282,1.078100608603576,0.0,-0.53483325709221,-0.457803864737273,0.49531269074441797
0.92760046585797,1.0976974463083105,0.0,-0.557460963256299,-0.45806500637144,0.4695363927070215
0.932669320862659,1.1155129209439087,0.0,-0.579181575389628,-0.457577259482253,0.443177638389398
0.937738175867347,1.131522018231629,0.0,-0.599962019137559,-0.456342985481193,0.41627946869908117
0.942807030872035,1.145702654661119,0.0,-0.619770785318625,-0.454365730417529,0.3888857022748581
0.947875885876724,1.1580357082136996,0.0,-0.638577977479988,-0.45165021765909,0.36104086420272186
0.952944740881412,1.168505044355317,0.0,-0.656355356842845,-0.448202338719971,0.3327901137110485
0.9580135958861,1.177097537256667,0.0,-0.673076384571282,-0.444029142247432,0.304179170960755
0.963082450890789,1.1838030862028799,0.0,-0.688716261294105,-0.439138821183867,0.275254243047888
0.968151305895477,1.1886146271655198,0.0,-0.703251963820666,-0.433540698122209,0.24606194933721698
0.973220160900165,1.1915281395146398,0.0,-0.716662278988953,-0.42724520887711,0.2166492462465937
0.978289015904854,1.1925426478590602,0.0,-0.728927834594957,-0.420263884293056,0.18706335160292467
0.983357870909542,1.1916602190096628,0.0,-0.740031127352492,-0.412609330320872,0.15735166869114103
0.988426725914231,1.1888859540684236,0.0,-0.749956547838952,-0.404295206389628,0.12756171011821366
0.993495580918919,1.1842279756551135,0.0,-0.758690402388147,-0.39533620210891,0.09774102161464437
0.998564435923607,1.177697410290626,0.0,-0.766220931893603,-0.385748012336036,0.06793710589581609
1.0036332909283,1.1693083659649992,0.0,-0.772538327494986,-0.375547310650119,0.03819734670574685
1.00870214593298,1.159077904925455,0.0,-0.777634743118626,-0.364751721271975,0.008568933165524364
1.01377100093767,1.147026011729179,0.0,-0.781504304857729,-0.353379789475179,-0.020901215452610155
1.01883985594236,1.1331755566123591,0.0,-0.784143117172084,-0.341450950537853,-0.05016652440319419
1.02390871094705,1.1175522542361844,0.0,-0.785549265902804,-0.328985497281145,-0.07918083747896261
1.02897756595174,1.1001846178777936,0.0,-0.785722818094724,-0.316004546250437,-0.10789849023574948
